POLYMETHYL METHACRALATE (LUCITE, PERSPEX, PLEXIGLASS)

Kinetic  	Total    	CSDA     	Projected
Energy   	Stp. Pow.	Range    	Range
MeV      	MeV cm2/g	g/cm2    	g/cm2

1.000E-03	2.147E+02	5.659E-06	2.667E-06
1.500E-03	2.463E+02	7.816E-06	4.006E-06
2.000E-03	2.746E+02	9.737E-06	5.307E-06
2.500E-03	3.004E+02	1.148E-05	6.558E-06
3.000E-03	3.242E+02	1.308E-05	7.761E-06
4.000E-03	3.635E+02	1.598E-05	1.005E-05
5.000E-03	3.994E+02	1.861E-05	1.221E-05
6.000E-03	4.322E+02	2.101E-05	1.424E-05
7.000E-03	4.624E+02	2.325E-05	1.618E-05
8.000E-03	4.899E+02	2.535E-05	1.804E-05
9.000E-03	5.153E+02	2.734E-05	1.982E-05
1.000E-02	5.391E+02	2.923E-05	2.153E-05
1.250E-02	5.870E+02	3.367E-05	2.560E-05
1.500E-02	6.277E+02	3.778E-05	2.944E-05
1.750E-02	6.632E+02	4.165E-05	3.309E-05
2.000E-02	6.948E+02	4.533E-05	3.658E-05
2.250E-02	7.229E+02	4.886E-05	3.995E-05
2.500E-02	7.479E+02	5.226E-05	4.322E-05
2.750E-02	7.700E+02	5.555E-05	4.639E-05
3.000E-02	7.898E+02	5.876E-05	4.949E-05
3.500E-02	8.244E+02	6.495E-05	5.551E-05
4.000E-02	8.537E+02	7.091E-05	6.132E-05
4.500E-02	8.779E+02	7.668E-05	6.697E-05
5.000E-02	8.972E+02	8.231E-05	7.249E-05
5.500E-02	9.118E+02	8.784E-05	7.792E-05
6.000E-02	9.224E+02	9.329E-05	8.328E-05
6.500E-02	9.296E+02	9.868E-05	8.860E-05
7.000E-02	9.340E+02	1.040E-04	9.390E-05
7.500E-02	9.358E+02	1.094E-04	9.918E-05
8.000E-02	9.355E+02	1.147E-04	1.045E-04
8.500E-02	9.334E+02	1.201E-04	1.097E-04
9.000E-02	9.296E+02	1.255E-04	1.151E-04
9.500E-02	9.245E+02	1.308E-04	1.204E-04
1.000E-01	9.183E+02	1.363E-04	1.258E-04
1.250E-01	8.757E+02	1.641E-04	1.534E-04
1.500E-01	8.243E+02	1.935E-04	1.826E-04
1.750E-01	7.723E+02	2.249E-04	2.138E-04
2.000E-01	7.232E+02	2.583E-04	2.470E-04
2.250E-01	6.769E+02	2.941E-04	2.826E-04
2.500E-01	6.346E+02	3.322E-04	3.206E-04
2.750E-01	5.969E+02	3.728E-04	3.611E-04
3.000E-01	5.634E+02	4.160E-04	4.040E-04
3.500E-01	5.077E+02	5.096E-04	4.973E-04
4.000E-01	4.639E+02	6.128E-04	6.001E-04
4.500E-01	4.289E+02	7.250E-04	7.120E-04
5.000E-01	4.006E+02	8.458E-04	8.324E-04
5.500E-01	3.770E+02	9.745E-04	9.607E-04
6.000E-01	3.564E+02	1.111E-03	1.097E-03
6.500E-01	3.383E+02	1.255E-03	1.240E-03
7.000E-01	3.222E+02	1.407E-03	1.392E-03
7.500E-01	3.078E+02	1.565E-03	1.550E-03
8.000E-01	2.948E+02	1.731E-03	1.716E-03
8.500E-01	2.830E+02	1.905E-03	1.888E-03
9.000E-01	2.722E+02	2.085E-03	2.068E-03
9.500E-01	2.623E+02	2.272E-03	2.255E-03
1.000E+00	2.532E+02	2.466E-03	2.448E-03
1.250E+00	2.168E+02	3.537E-03	3.517E-03
1.500E+00	1.905E+02	4.770E-03	4.747E-03
1.750E+00	1.705E+02	6.160E-03	6.134E-03
2.000E+00	1.546E+02	7.702E-03	7.672E-03
2.250E+00	1.418E+02	9.392E-03	9.359E-03
2.500E+00	1.311E+02	1.123E-02	1.119E-02
2.750E+00	1.221E+02	1.320E-02	1.316E-02
3.000E+00	1.143E+02	1.532E-02	1.528E-02
3.500E+00	1.017E+02	1.997E-02	1.991E-02
4.000E+00	9.179E+01	2.515E-02	2.509E-02
4.500E+00	8.379E+01	3.086E-02	3.079E-02
5.000E+00	7.719E+01	3.708E-02	3.700E-02
5.500E+00	7.164E+01	4.381E-02	4.372E-02
6.000E+00	6.690E+01	5.104E-02	5.093E-02
6.500E+00	6.280E+01	5.876E-02	5.864E-02
7.000E+00	5.921E+01	6.696E-02	6.683E-02
7.500E+00	5.605E+01	7.564E-02	7.550E-02
8.000E+00	5.324E+01	8.480E-02	8.464E-02
8.500E+00	5.073E+01	9.442E-02	9.425E-02
9.000E+00	4.845E+01	1.045E-01	1.043E-01
9.500E+00	4.640E+01	1.151E-01	1.149E-01
1.000E+01	4.452E+01	1.261E-01	1.258E-01
1.250E+01	3.719E+01	1.878E-01	1.875E-01
1.500E+01	3.208E+01	2.604E-01	2.600E-01
1.750E+01	2.831E+01	3.435E-01	3.430E-01
2.000E+01	2.539E+01	4.369E-01	4.363E-01
2.500E+01	2.118E+01	6.535E-01	6.526E-01
2.750E+01	1.961E+01	7.763E-01	7.752E-01
3.000E+01	1.827E+01	9.085E-01	9.072E-01
3.500E+01	1.613E+01	1.200E+00	1.199E+00
4.000E+01	1.449E+01	1.528E+00	1.526E+00
4.500E+01	1.318E+01	1.890E+00	1.888E+00
5.000E+01	1.212E+01	2.286E+00	2.283E+00
5.500E+01	1.124E+01	2.715E+00	2.712E+00
6.000E+01	1.050E+01	3.176E+00	3.172E+00
6.500E+01	9.858E+00	3.668E+00	3.663E+00
6.750E+01	9.572E+00	3.925E+00	3.920E+00
7.000E+01	9.306E+00	4.190E+00	4.185E+00
7.500E+01	8.823E+00	4.742E+00	4.736E+00
8.000E+01	8.397E+00	5.323E+00	5.317E+00
8.500E+01	8.018E+00	5.933E+00	5.926E+00
9.000E+01	7.678E+00	6.570E+00	6.562E+00
9.500E+01	7.372E+00	7.235E+00	7.226E+00
1.000E+02	7.095E+00	7.927E+00	7.917E+00
1.250E+02	6.027E+00	1.177E+01	1.175E+01
1.500E+02	5.300E+00	1.620E+01	1.619E+01
1.750E+02	4.772E+00	2.119E+01	2.116E+01
2.000E+02	4.372E+00	2.667E+01	2.664E+01
2.250E+02	4.058E+00	3.261E+01	3.258E+01
2.500E+02	3.806E+00	3.898E+01	3.894E+01
2.750E+02	3.599E+00	4.574E+01	4.569E+01
3.000E+02	3.426E+00	5.286E+01	5.281E+01
3.500E+02	3.154E+00	6.810E+01	6.804E+01
4.000E+02	2.951E+00	8.451E+01	8.443E+01
4.500E+02	2.794E+00	1.019E+02	1.019E+02
5.000E+02	2.670E+00	1.203E+02	1.202E+02
5.500E+02	2.569E+00	1.394E+02	1.393E+02
6.000E+02	2.487E+00	1.592E+02	1.590E+02
6.500E+02	2.418E+00	1.796E+02	1.794E+02
7.000E+02	2.361E+00	2.005E+02	2.003E+02
7.500E+02	2.312E+00	2.219E+02	2.217E+02
8.000E+02	2.269E+00	2.437E+02	2.435E+02
8.500E+02	2.232E+00	2.660E+02	2.658E+02
9.000E+02	2.199E+00	2.885E+02	2.883E+02
9.500E+02	2.170E+00	3.114E+02	3.112E+02
1.000E+03	2.145E+00	3.346E+02	3.344E+02
1.500E+03	2.004E+00	5.772E+02	5.768E+02
2.000E+03	1.954E+00	8.303E+02	8.299E+02
2.500E+03	1.937E+00	1.088E+03	1.087E+03
3.000E+03	1.934E+00	1.346E+03	1.345E+03
4.000E+03	1.945E+00	1.862E+03	1.861E+03
5.000E+03	1.964E+00	2.374E+03	2.373E+03
6.000E+03	1.985E+00	2.880E+03	2.879E+03
7.000E+03	2.005E+00	3.381E+03	3.380E+03
8.000E+03	2.024E+00	3.877E+03	3.876E+03
9.000E+03	2.042E+00	4.369E+03	4.368E+03
1.000E+04	2.059E+00	4.857E+03	4.856E+03